# k_modes P_R(k) P_S(k) P_RS(k) 
2.3427593871348421e-06 5.2974174804842576e-10 3.2623798831505883e-68 1.6152258656631366e-39
2.5939803044519473e-06 5.4706271599862224e-10 3.0609774698234793e-68 1.8145026596025819e-39
2.8721403729444679e-06 5.6734959397571596e-10 2.8789714355795172e-68 1.9941827268158470e-39
3.1801283563101168e-06 5.9027940747065365e-10 2.7105349731309575e-68 2.1550852936857612e-39
3.5211427887975377e-06 6.1556178248358948e-10 2.5158110007519101e-68 2.2815002745314827e-39
3.8987251928053441e-06 6.4293491703211719e-10 2.4053101095685988e-68 2.4251872377570694e-39
4.3167968585011065e-06 6.7216590305339878e-10 2.2473936574968352e-68 2.5262256164113736e-39
4.7796995674261304e-06 7.0304823773189473e-10 2.1382914677205123e-68 2.6362170043572411e-39
5.2922406830109778e-06 7.3539946311860516e-10 2.0164313784410767e-68 2.7220470021121483e-39
5.8597430762784764e-06 7.6906252935961417e-10 1.9077897066394981e-68 2.8006671153357957e-39
6.4881004052253390e-06 8.0389872556041920e-10 1.8041959637587800e-68 2.8680227641655238e-39
7.1838383219729877e-06 8.3979022892603144e-10 1.7058404656654661e-68 2.9252629056676951e-39
7.9541822433395722e-06 8.7663844496621069e-10 1.6158667729837428e-68 2.9763100612277347e-39
8.8071323886479371e-06 9.1435805613557500e-10 1.5192595039621633e-68 3.0079704150886324e-39
9.7515468640564517e-06 9.5288441254251717e-10 1.4502073727848523e-68 3.0549886109882495e-39
1.0797233656264791e-05 9.9216398380790854e-10 1.3642874426165228e-68 3.0730360870133875e-39
1.1955052490972907e-05 1.0321601835750286e-09 1.3101767912743293e-68 3.1167042862539603e-39
1.3237027613919452e-05 1.0728448127906230e-09 1.2430969087702458e-68 3.1361099372680291e-39
1.4656472665759639e-05 1.1141999448615114e-09 1.1820434497314422e-68 3.1538436076985333e-39
1.6228128947640239e-05 1.1562188114843450e-09 1.1265542880113381e-68 3.1705495765016598e-39
1.7968318513395165e-05 1.1989061421259817e-09 1.0725937964714905e-68 3.1814676339229624e-39
1.9895113678263351e-05 1.2422707930070781e-09 1.0172937179626625e-68 3.1824287088368462e-39
2.2028524704520714e-05 1.2863258478884786e-09 9.6980564862956887e-69 3.1880769625026013e-39
2.4390707613189044e-05 1.3310196879386029e-09 9.3474822472407539e-69 3.2080620243806503e-39
2.7006194280000543e-05 1.3764122124673701e-09 8.8509096284371678e-69 3.1967256146380843e-39
2.9902147205223081e-05 1.4225269022134252e-09 8.5743501073283609e-69 3.2193402315827419e-39
3.3108641603196396e-05 1.4693873432540983e-09 8.2161012647113748e-69 3.2220109913967055e-39
3.6658977741151457e-05 1.5170177638962417e-09 7.8962203202215437e-69 3.2272664934510771e-39
4.0590026771031771e-05 1.5654319666563287e-09 7.5976275343595498e-69 3.2323767262088756e-39
4.4942613645868851e-05 1.6146332763001030e-09 7.2985032993087211e-69 3.2329842613432904e-39
4.9761941097396667e-05 1.6646224328633277e-09 7.0253110631282395e-69 3.2350849541637361e-39
5.5098059078021358e-05 1.7153970939924877e-09 6.7670182171975991e-69 3.2366394528113419e-39
6.1006384542422073e-05 1.7669516452492160e-09 6.4159396147502927e-69 3.2111253706048165e-39
6.7548276966846807e-05 1.8192682735883378e-09 6.3136745532160197e-69 3.2441294648528279e-39
7.4791675583020810e-05 1.8723159042783141e-09 6.0397055905962687e-69 3.2299858573193787e-39
8.2811804944503715e-05 1.9260440394912574e-09 5.9231866217038856e-69 3.2547389137836850e-39
9.1691956152983761e-05 1.9803910142036245e-09 5.7329469071593386e-69 3.2567592783237917e-39
1.0152435185774445e-04 2.0352911969611310e-09 5.5625134034120751e-69 3.2614041136754450e-39
1.1241110401154519e-04 2.0906728495600002e-09 5.3720840084362788e-69 3.2570761391711842e-39
1.2446527432945651e-04 2.1464542838688778e-09 5.2521266867750000e-69 3.2713471501164545e-39
1.3781204846378701e-04 2.2025325741571135e-09 5.1144491388810977e-69 3.2777390464706470e-39
1.5259003608920988e-04 2.2587950647303879e-09 4.9183215942187650e-69 3.2621975437890119e-39
1.6895271039980701e-04 2.3151294018499256e-09 4.6811049186040925e-69 3.2285791918024070e-39
1.8707000196757645e-04 2.3714325605047251e-09 4.7415606893226444e-69 3.2948897889293816e-39
2.0713006351503311e-04 2.4275955965071459e-09 4.6361639336970374e-69 3.3022435415095865e-39
2.2934122392951999e-04 2.4834909884568802e-09 4.4469201650551719e-69 3.2765234034706162e-39
2.5393415181216710e-04 2.5389670573410992e-09 4.4367712551284430e-69 3.3141477499928028e-39
2.8116425103051336e-04 2.5938532939230687e-09 4.3022363038514853e-69 3.3032114626714901e-39
3.1131431315321661e-04 2.6479725453239872e-09 4.1915575471766666e-69 3.2985204416494751e-39
3.4469745431307071e-04 2.7011516539190747e-09 4.1330435093198172e-69 3.3120429721530106e-39
3.8166036699840001e-04 2.7531973019406091e-09 4.1100021705735781e-69 3.3380572078219604e-39
4.2258692054352619e-04 2.8038796110080153e-09 4.0338174376909007e-69 3.3405489066968958e-39
4.6790214771032067e-04 2.8529095639770860e-09 3.9703556670210691e-69 3.3459978144181155e-39
5.1807665876251558e-04 2.8999879548754441e-09 3.8191185640649518e-69 3.3112862069875343e-39
5.7363152887406966e-04 2.9448754046528434e-09 3.8446615148576447e-69 3.3503829768242958e-39
6.3514370962857651e-04 2.9874740688956911e-09 3.7806345422654850e-69 3.3484748553314628e-39
7.0325202080953023e-04 3.0278323854225587e-09 3.7259451802383923e-69 3.3484543495435795e-39
7.7866378470771902e-04 3.0660141578206502e-09 3.6360282069710996e-69 3.3302559712076346e-39
8.6216217184474316e-04 3.1019364274462992e-09 3.6160883916440562e-69 3.3419638184092860e-39
9.5461433439987195e-04 3.1353670330937141e-09 3.4509837631327530e-69 3.2835651913972862e-39
1.0569804118079702e-03 3.1659711134240725e-09 3.4490915400998230e-69 3.2997296265118324e-39
1.1703235020539358e-03 3.1934108659271579e-09 3.4702120493328043e-69 3.3250716938348613e-39
1.2958207022181090e-03 3.2175000135986608e-09 3.4242908957200530e-69 3.3162353846101808e-39
1.4347753329315329e-03 3.2382349177747078e-09 3.3738852050062446e-69 3.3029990279016472e-39
1.5886304736951922e-03 3.2556822564620127e-09 3.3275690196475499e-69 3.2896275039480703e-39
1.7589839496309789e-03 3.2698162578811269e-09 3.2852096802092189e-69 3.2761594344462464e-39
1.9476049253056465e-03 3.2804805295528525e-09 3.2824489345373817e-69 3.2804822608182918e-39
2.1564522779588687e-03 3.2875493830340373e-09 3.1915559867056372e-69 3.2385129509544293e-39
2.3876949409460950e-03 3.2910569464998426e-09 3.1460909662369159e-69 3.2172974512313856e-39
2.6437344286680859e-03 3.2910590673765692e-09 3.1014052878525383e-69 3.1945314104751945e-39
2.9272297769142707e-03 3.2875185971710156e-09 3.0149478305009821e-69 3.1481118208624066e-39
3.2411251576318395e-03 3.2804529083654606e-09 3.0083425076218663e-69 3.1413603863220816e-39
3.5886804549069983e-03 3.2699380192849692e-09 2.9609205324626484e-69 3.1115543980888236e-39
3.9735051196978146e-03 3.2559727712545406e-09 2.9147404287081138e-69 3.0806227506454512e-39
4.3995956549087332e-03 3.2386229712138225e-09 2.8698617549409860e-69 3.0486706104133667e-39
4.8713771200989131e-03 3.2181034117430974e-09 2.8014884231266090e-69 3.0025779109220228e-39
5.3937490868613590e-03 3.1945526114835672e-09 2.7747008111986797e-69 2.9772279493540063e-39
5.9721365221313471e-03 3.1681078353013726e-09 2.7266856787207775e-69 2.9391056503967158e-39
6.6125461278602991e-03 3.1389048350746184e-09 2.6796580608675996e-69 2.9001813576100367e-39
7.3216287221570921e-03 3.1070906286613579e-09 2.6315336918238182e-69 2.8594129318519385e-39
8.1067483097409729e-03 3.0728442518588618e-09 2.5835018495259055e-69 2.8175377204927963e-39
8.9760585590204396e-03 3.0363827286534155e-09 2.4949659523900791e-69 2.7523645068156262e-39
9.9385874800322418e-03 2.9979394038330192e-09 2.4853074481810567e-69 2.7295925853613572e-39
1.1004331182642489e-02 2.9577366710751007e-09 2.4374156764173554e-69 2.6849877093152307e-39
1.2184357688713024e-02 2.9159758767329389e-09 2.3484566703501448e-69 2.6168716414735546e-39
1.3490921876348923e-02 2.8728500343378575e-09 2.3196865663268676e-69 2.5814940042441096e-39
1.4937592749952688e-02 2.8285402505118212e-09 2.2959094500989302e-69 2.5483420618692518e-39
1.6539394357817264e-02 2.7832666448633964e-09 2.1951525655926541e-69 2.4717529486441136e-39
1.8312961820723374e-02 2.7372859566049459e-09 2.1513730031824489e-69 2.4266342656795099e-39
2.0276714091937924e-02 2.6908598834792170e-09 2.1602054675770493e-69 2.4108080634522376e-39
2.2451045242770758e-02 2.6442318298583285e-09 2.1181442401785593e-69 2.3662940757995236e-39
2.4858536260239074e-02 2.5976408553248730e-09 2.4284849868184538e-69 2.5110382494214325e-39
2.7524189556412740e-02 2.5513408776508548e-09 2.0342894279090712e-69 2.2772877457932239e-39
3.0475688624880211e-02 2.5056052416653994e-09 1.9978336820335780e-69 2.2359472150058409e-39
3.3743685540934064e-02 2.4607047661069583e-09 1.9610126526971125e-69 2.1945648831172398e-39
3.7362119291239421e-02 2.4169127747638211e-09 1.9262341310380426e-69 2.1545378989714868e-39
4.1368568238920392e-02 2.3745312453169451e-09 1.8949196763760770e-69 2.1167023897727239e-39
4.5804640384505477e-02 2.3338765845984152e-09 1.8650944906076717e-69 2.0799715567484114e-39
5.0716405475690778e-02 2.2952776126398211e-09 1.8261921561862673e-69 2.0384721165440962e-39
5.6154873453493390e-02 2.2590972424230332e-09 1.7912645908989325e-69 1.9993893374698141e-39
6.2176524203579837e-02 2.2257182976020831e-09 1.7925401823034391e-69 1.9805379725041423e-39
6.8843894114373624e-02 2.1955584815286245e-09 1.7758076866899182e-69 1.9516284432431661e-39
7.6226225533498226e-02 2.1690578292339530e-09 1.7597722722366402e-69 1.9228341667189174e-39
8.4400185867327338e-02 2.1466777728569839e-09 1.7494820429513845e-69 1.8965600350225543e-39
9.3450663791675867e-02 2.1288899947736207e-09 1.7404927390696838e-69 1.8699137300787394e-39
1.0347165084248390e-01 2.1161749421982079e-09 1.7377390470562828e-69 1.8448624166227966e-39
1.1456721754203926e-01 2.1089833931206546e-09 1.7368165021621801e-69 1.8182148264599459e-39
1.2685259419805983e-01 2.1077017902238247e-09 1.7414662453913435e-69 1.7907271999957343e-39
1.4045536760001182e-01 2.1126059873398454e-09 1.7473870691133929e-69 1.7588902816702501e-39
1.5551680604066145e-01 2.1237927369837504e-09 1.7655159037949130e-69 1.7259023862780928e-39
1.7219332642355156e-01 2.1411000890415427e-09 1.7831560504862575e-69 1.6834209746939215e-39
1.9065811869268551e-01 2.1639981660906310e-09 1.8119231892194088e-69 1.6339495814984011e-39
2.1110294445454392e-01 2.1914942345729988e-09 1.8471835663102122e-69 1.5714718595300180e-39
2.3374012847158102e-01 2.2220275440217780e-09 1.9043194405854517e-69 1.4983017644250108e-39
2.5880476370937333e-01 2.2533804113563714e-09 1.9660110571190868e-69 1.4002462156114010e-39
2.8655715283740091e-01 2.2826475252047911e-09 1.9982140811806982e-69 1.2583344166208810e-39
3.1728551153907342e-01 2.3062787752486121e-09 2.1957298188006209e-69 1.1395172105585025e-39
3.5130896170556941e-01 2.3202579624039432e-09 2.3835888150425897e-69 9.6331198572816345e-40
3.8898084559857515e-01 2.3203744035584107e-09 2.6395810971550575e-69 7.4453644332253093e-40
4.3069239540035298e-01 2.3027771877356012e-09 2.7879565789805143e-69 4.0875479553174917e-40
4.7687679626035928e-01 2.2645916619539775e-09 9.6457282561262872e-67 -2.7693389361303879e-38
5.2801368503419321e-01 2.2046518579847674e-09 4.2778704676292538e-69 -2.2120195526162934e-40
5.8463413143543419e-01 2.1241747262060756e-09 5.3952189931536270e-69 -7.2950067898131900e-40
6.4732615333091437e-01 2.0271847393938586e-09 6.8629180737641666e-69 -1.2496380772182261e-39
7.1674082345716639e-01 1.9204816948814271e-09 9.0815952504357289e-69 -1.9036020422932733e-39
7.9359903097788742e-01 1.8130029298316967e-09 1.2266104602645730e-68 -2.6942129783710141e-39
8.7869896810290982e-01 1.7145532670683662e-09 1.6858569995716074e-68 -3.6353281513929358e-39
9.7292441951914677e-01 1.6341184752604153e-09 2.3417687791508427e-68 -4.7759268685490368e-39
1.0772539407213786e+00 1.5781769034648746e-09 3.2742195686306847e-68 -6.1223669347077334e-39
1.1927710205622011e+00 1.5495522678201957e-09 4.6012999571034107e-68 -7.7182358612594981e-39
1.3206753335618224e+00 1.5472124332967039e-09 6.4652127198021222e-68 -9.5849593163970882e-39
1.4622951988358397e+00 1.5670881123473703e-09 9.0696370810096209e-68 -1.1755539678902205e-38
1.6191013750301493e+00 1.6035784863137522e-09 1.2444761217405544e-67 -1.4114968079429022e-38
1.7927223345269385e+00 1.6511071466931675e-09 1.7570038730108443e-67 -1.7010112265278922e-38
1.9849611755483014e+00 1.7051768184887121e-09 2.4254654996154953e-67 -2.0124062930267852e-38
2.1978143477940146e+00 1.7627255022501424e-09 3.3166509895988239e-67 -2.3523519869304331e-38
2.4334923860840512e+00 1.8219173981780206e-09 4.4708833914789269e-67 -2.7099980558605729e-38
2.6944428673299687e+00 1.8817572913967441e-09 6.0307889189428348e-67 -3.1086647846131563e-38
2.9833758292492911e+00 1.9417471315226489e-09 7.9964547362275009e-67 -3.5107858944752343e-38
3.3032919148027022e+00 2.0016790118215104e-09 1.0447780195666215e-66 -3.9179560943891675e-38
3.6575135346412697e+00 2.0615114290881573e-09 1.3438248304348750e-66 -4.3098370947571625e-38
4.0497193711937118e+00 2.1212761740332947e-09 1.6962040376611628e-66 -4.6640775929825252e-38
4.4839825827275135e+00 2.1809982986370219e-09 2.0923456299910980e-66 -4.9527777266946623e-38
4.9648131041428538e+00 2.2405855688514865e-09 2.5166343235173675e-66 -5.1735023779740500e-38
5.4972044838039720e+00 2.2997384257861124e-09 2.9197411107662677e-66 -5.2392040799899069e-38
6.0866857428204586e+00 2.3578183978783210e-09 3.2488059758997463e-66 -5.1461574318206496e-38
6.7393787953504383e+00 2.4137304295561607e-09 3.4173184214346374e-66 -4.8697938962947187e-38
7.4620620262502140e+00 2.4658066876305702e-09 3.2830128316413794e-66 -4.2908568971992569e-38
8.2622406863405775e+00 2.5117259085399796e-09 2.8436513272906127e-66 -3.6605586093419103e-38
9.1482248363627772e+00 2.5485248499545312e-09 2.0207410500897587e-66 -2.7400723998906272e-38
1.0129215649091897e+01 2.5727421260595917e-09 9.3358709364048124e-67 -1.7483956136725650e-38
1.1215400965877560e+01 2.5807614509911755e-09 8.5240098346037793e-68 -8.4896466275380296e-39
1.2418061099990917e+01 2.5693491541903367e-09 5.3141032863470055e-67 -4.3429633666997298e-39
1.3749685985572913e+01 2.5362926678700098e-09 4.1076154523640413e-66 -8.5419597945657827e-39
1.5224104888805746e+01 2.4810323606419404e-09 1.4166806304845102e-65 -2.3345810128948105e-38
1.6856630028391272e+01 2.4050056829248920e-09 3.5254732798558710e-65 -5.6466054842061502e-38
1.8664215596871927e+01 2.3115963757371968e-09 7.4237638409390886e-65 -1.1329943035565052e-37
2.0665633834271361e+01 2.2056318582767392e-09 1.4072260529769972e-64 -1.9843731006856595e-37
2.2881669982624757e+01 2.0926131021745822e-09 2.4645945027261778e-64 -3.1637744768562459e-37
2.5335338146051654e+01 1.9778944552178345e-09 4.1383128138992599e-64 -4.7345180109431716e-37
2.8052120298133506e+01 1.8660535830840106e-09 6.5501950107490476e-64 -6.7942155324461991e-37
3.1060230918748907e+01 1.7605360222513344e-09 1.0352185448943880e-63 -9.1531649280947250e-37
3.4390910008688287e+01 1.6636096540672875e-09 1.5528450978876096e-63 -1.2108958683917292e-36
3.8078747525079137e+01 1.5764597859429914e-09 2.3665258540927602e-63 -1.5616715835628455e-36
4.2162042606968072e+01 1.4994391072654126e-09 3.5021604848388474e-63 -1.9775786564697545e-36
4.6683201321708829e+01 1.4323082818329145e-09 5.0736722678119446e-63 -2.4597425659341221e-36
5.1689177062854711e+01 1.3744372433648702e-09 7.3704447253617654e-63 -3.0069552580617301e-36
5.7231958173200660e+01 1.3249809472137294e-09 1.0732510714226733e-62 -3.6587834456899171e-36
6.3369107857065373e+01 1.2830034720907550e-09 1.5416723756877877e-62 -4.3965252294728830e-36
7.0164361988941039e+01 1.2475612587220645e-09 2.2012561494863575e-62 -5.2304775906048731e-36
7.7688291026907024e+01 1.2177501928985623e-09 3.1225749333423214e-62 -6.1647578831157127e-36
8.6019032904948006e+01 1.1927327919320130e-09 4.5172203232113971e-62 -7.2938724602087353e-36
9.5243104515451606e+01 1.1717582518557077e-09 6.2181076273890642e-62 -8.3840370072410580e-36
1.0545630020933916e+02 1.1541521488424168e-09 8.7088511566108664e-62 -9.6580981624403166e-36
1.1676468664498528e+02 1.1393327853122592e-09 1.2134743301729248e-61 -1.1037564820331222e-35
1.2928570431768458e+02 1.1267935753574114e-09 1.6868145409526945e-61 -1.2543866339137108e-35
1.4314938720933588e+02 1.1161028904914149e-09 2.2758527286630385e-61 -1.3833656286162007e-35
1.5849971322471555e+02 1.1068951286223137e-09 3.2106171768566758e-61 -1.5756898576511027e-35
1.7549609943896888e+02 1.0988639081227145e-09 4.2672470363339241e-61 -1.6965597482610071e-35
1.9431505768484791e+02 1.0917515883768071e-09 6.0018288391122320e-61 -1.9078588825026361e-35
2.1515202767339417e+02 1.0853472881405597e-09 8.1071052134317217e-61 -2.0591569961148915e-35
2.3822340668549518e+02 1.0794779073007474e-09 1.1053453490595944e-60 -2.2233676074938018e-35
2.6376879691318197e+02 1.0740022078785110e-09 1.4829265442565036e-60 -2.3101352030397625e-35
2.9205349378988473e+02 1.0688087362136018e-09 1.9969753861961669e-60 -2.3862044617263538e-35
3.2337124115159344e+02 1.0638043726241381e-09 2.6749233831763057e-60 -2.4035610982477819e-35
3.5804728184198058e+02 1.0589240967357031e-09 3.5651994368149117e-60 -2.3274589131117090e-35
3.9644173544280244e+02 1.0541088050840849e-09 4.7313582692901010e-60 -2.1304194057816595e-35
4.3895333820817586e+02 1.0493227632160089e-09 6.3005767108537582e-60 -1.8422300006718008e-35
4.8602358404290806e+02 1.0445324150918510e-09 8.1648749450481857e-60 -1.2353961046482708e-35
5.3814130953000222e+02 1.0397160964361759e-09 1.1064671622186951e-59 -6.4472388832666947e-36
5.9584777062402600e+02 1.0348592379653495e-09 1.4628008368301604e-59 3.1420790478455351e-36
6.5974226373310614e+02 1.0299588273597090e-09 1.9348618656853168e-59 1.6458867889413729e-35
7.3048834956592668e+02 1.0250043768435546e-09 2.5686530767028908e-59 3.3164628413259205e-35
8.0882074437999484e+02 1.0199962920567664e-09 3.4180752619895537e-59 5.4792868798007891e-35
8.9555295019851371e+02 1.0149353091369717e-09 4.5493974255618779e-59 8.2429286908900608e-35
9.9158570323768083e+02 1.0098241183975674e-09 6.0631872092512532e-59 1.1756096640574936e-34
1.0979163282834527e+03 1.0046665156072055e-09 8.1582554087775190e-59 1.5944521434884338e-34
1.2156490961653992e+03 9.9946662059918989e-10 1.0991530873994903e-58 2.0776217131968825e-34
1.3460066918926655e+03 9.9422961992129227e-10 1.4910551286401728e-58 2.7207921215114824e-34
1.4903429125515800e+03 9.8896025061894342e-10 2.0302127405894505e-58 3.4634313261460885e-34
1.6501567268358315e+03 9.8366353179970792e-10 2.7809886025623513e-58 4.3454383189970953e-34
1.8271078422210453e+03 9.7834431548863176e-10 3.7979556576855134e-58 5.3764661873922095e-34
2.0230339414528607e+03 9.7300747499746382e-10 5.2639133022729167e-58 6.6049110608055425e-34
2.2399697673538649e+03 9.6765710764326162e-10 7.2695547978709492e-58 8.0238163597016284e-34
2.4801682541499963e+03 9.6229742667788757e-10 1.0081011894232088e-57 9.6384259015731480e-34
2.7461239247706703e+03 9.5693151615620220e-10 1.4016229771437740e-57 1.1505159212871825e-33
3.0405987971095897e+03 9.5156294134704981e-10 1.9491348275153471e-57 1.3613592671613325e-33
3.3666510682894100e+03 9.4619381798088943e-10 2.7062188757766097e-57 1.5972471953081280e-33
3.7276668748237066e+03 9.4082811709196947e-10 3.7652957131818687e-57 1.8650308550656768e-33
4.1273954585136789e+03 9.3546674682808648e-10 5.2268307345288742e-57 2.1543556936379052e-33
4.5699881032864569e+03 9.3011216939069375e-10 7.2673572911969595e-57 2.4792883781064648e-33
5.0600412473440565e+03 9.2476516911484725e-10 9.9082272927802093e-57 2.7994074136824470e-33
5.6026442183537283e+03 9.1942789778037286e-10 1.3762604743542962e-56 3.1887732454926608e-33
6.2034320874219020e+03 9.1410236149560639e-10 1.8944234972770449e-56 3.5689312657488205e-33
6.8686441907537919e+03 9.0878800755820352e-10 2.5941635179169557e-56 3.9632602915543533e-33
7.6051889267611423e+03 9.0348616302422165e-10 3.5410655965255585e-56 4.3535820896323505e-33
