# k_modes P_R(k) P_S(k) P_RS(k) 
4.5673016486928767e-05 1.2251518587620999e-07 1.1323228176775229e-57 -1.1752764718214604e-32
5.0774933863183912e-05 1.1404816113382154e-07 1.0599767911597070e-57 -1.0969521361922295e-32
5.6446762379895238e-05 1.0613782054552645e-07 9.9457252773825142e-58 -1.0248950723416261e-32
6.2752164124090361e-05 9.8748727334622571e-08 9.3908051174270958e-58 -9.6043718337255967e-33
6.9761912574445886e-05 9.1847494742982659e-08 8.7444555109905980e-58 -8.9365959098277304e-33
7.7554686981326287e-05 8.5403060693981617e-08 8.2370232324406829e-58 -8.3619654065756980e-33
8.6217955483272002e-05 7.9385987277779346e-08 7.7308517023788094e-58 -7.8087263939367477e-33
9.5848956872269294e-05 7.3771527757808666e-08 7.2628324582019228e-58 -7.2944633033850791e-33
1.0655579202738790e-04 6.8532490570030090e-08 6.8431824055466900e-58 -6.8228710131792470e-33
1.1845863726732842e-04 6.3643176989844052e-08 6.4020168612051489e-58 -6.3578469960190786e-33
1.3169109324086048e-04 5.9081428715787431e-08 6.0388031148379958e-58 -5.9477667226493107e-33
1.4640168449545551e-04 5.4826105584992791e-08 5.6733802283738095e-58 -5.5518221214917906e-33
1.6275552655566105e-04 5.0857480826952580e-08 5.3218324711558497e-58 -5.1771015292761988e-33
1.8093617922294294e-04 4.7157072399057113e-08 4.9892438148589382e-58 -4.8252098645499909e-33
2.0114770689891629e-04 4.3707513484011200e-08 4.6711947071843856e-58 -4.4931641760709659e-33
2.2361696905757336e-04 4.0492536736617645e-08 4.4273242521356366e-58 -4.2086253382803092e-33
2.4859616657536512e-04 3.7496963574567243e-08 4.1415395520603923e-58 -3.9153340305032300e-33
2.7636567249981521e-04 3.4706493750583524e-08 3.8968673886484471e-58 -3.6521234370233488e-33
3.0723717902995186e-04 3.2107842445096234e-08 3.6467051663567183e-58 -3.3963609043940950e-33
3.4155719603108745e-04 2.9688454653200154e-08 3.4379004781447532e-58 -3.1692451475521273e-33
3.7971094035219494e-04 2.7436645842507001e-08 3.2358108268091458e-58 -2.9539965980094673e-33
4.2212665960059386e-04 2.5341441955036189e-08 3.0407666359754319e-58 -2.7502735927355331e-33
4.6928043890512408e-04 2.3392583874719654e-08 2.8543918904509082e-58 -2.5583299386841085e-33
5.2170154462017856e-04 2.1580433053572932e-08 2.6834917871026394e-58 -2.3807113753163799e-33
5.7997836494971854e-04 1.9896446093994520e-08 2.5292352487947436e-58 -2.2174114471703274e-33
6.4476501417039928e-04 1.8332663836490227e-08 2.3781171074907235e-58 -2.0620505685294894e-33
7.1678867458132981e-04 1.6880095609943082e-08 2.2228909451110791e-58 -1.9111187317060745e-33
7.9685775858842666e-04 1.5531455245820659e-08 2.0964861926179459e-58 -1.7783874532299630e-33
8.8587098253674053e-04 1.4279848816344163e-08 1.9574452641752998e-58 -1.6457812239997273e-33
9.8482745413782237e-04 1.3118823715094642e-08 1.8617316276659669e-58 -1.5364423099680634e-33
1.0948378867160350e-03 1.2042337714685893e-08 1.7293151265276320e-58 -1.4167596634589646e-33
1.2171370661454835e-03 1.1044731873061956e-08 1.6411936460156597e-58 -1.3197683940120565e-33
1.3530977104096759e-03 1.0120728703371189e-08 1.5423263797138377e-58 -1.2226651454175766e-33
1.5042458773472784e-03 9.2653726312591159e-09 1.4577971939059979e-58 -1.1352627560636974e-33
1.6722780935245196e-03 8.4740318817178151e-09 1.3594348821281459e-58 -1.0463212356425087e-33
1.8590803964931752e-03 7.7423758065588654e-09 1.2843326831459146e-58 -9.6995892332854654e-34
2.0667495041694402e-03 7.0663585805750699e-09 1.2052542096568267e-58 -8.9547405314540474e-34
2.2976163489443324e-03 6.4421907618122759e-09 1.1369784195874190e-58 -8.2820293846955437e-34
2.5542722406786114e-03 5.8663365477714232e-09 1.0666295349272786e-58 -7.6319925569332600e-34
2.8395979522425480e-03 5.3354765907675096e-09 1.0113463636723155e-58 -7.0639520010785542e-34
3.1567960540642495e-03 4.8465197982339564e-09 9.4886683348457479e-59 -6.4973097575385798e-34
3.5094268606179046e-03 4.3966037169301023e-09 8.9352931074278320e-59 -5.9807229563115356e-34
3.9014483923248684e-03 3.9834044206583807e-09 8.3954706048147529e-59 -5.4930205742733738e-34
4.3372608014102584e-03 3.6039852009117071e-09 7.9398634390734524e-59 -5.0552765975698753e-34
4.8217557603626249e-03 3.2559493281853252e-09 7.4626791277673839e-59 -4.6318020626876490e-34
5.3603713673456461e-03 2.9370893794540062e-09 7.0288354989843881e-59 -4.2420128678407233e-34
5.9591531848345002e-03 2.6453511046099389e-09 6.6059902690206499e-59 -3.8746589508614516e-34
6.6248220965906294e-03 2.3788176052086152e-09 6.2502897694031890e-59 -3.5447947529549843e-34
7.3648497446192600e-03 2.1356951588890397e-09 5.8755951803773118e-59 -3.2263545502147750e-34
8.1875423928338860e-03 1.9143117122507929e-09 5.5597560736615926e-59 -2.9399759746884787e-34
9.1021341587353144e-03 1.7131058503291040e-09 5.2364976131259914e-59 -2.6665749261957075e-34
1.0118890659562176e-02 1.5306176197474681e-09 4.9021551350897503e-59 -2.4050219084889203e-34
1.1249224236264331e-02 1.3654885312772399e-09 4.6266081323978110e-59 -2.1716621415208874e-34
1.2505822048603120e-02 1.2164529994529739e-09 4.4015735643894495e-59 -1.9624060756832583e-34
1.3902788479151530e-02 1.0823264975030729e-09 4.1298610621711406e-59 -1.7546070173691277e-34
1.5455803444573901e-02 9.6200596216178862e-10 3.9289652123195551e-59 -1.5731095534008295e-34
1.7182298391112499e-02 8.5446472222294791e-10 3.7053236939474694e-59 -1.3974944284328148e-34
1.9101651949700135e-02 7.5874441545063748e-10 3.4772903376774631e-59 -1.2315399201600883e-34
2.1235407446783299e-02 6.7395096636449624e-10 3.3011218981495280e-59 -1.0844303146169443e-34
2.3607514712253884e-02 5.9933490778338404e-10 3.1119710006103482e-59 -9.4427674116037697e-35
2.6244598898605323e-02 5.3410284862665914e-10 2.9248074112656286e-59 -8.1338489088553626e-35
2.9176259328609174e-02 4.7745329203378340e-10 2.7726549125314371e-59 -6.9558537366874522e-35
3.2435401725857231e-02 4.2871846907657739e-10 2.6221633212136898e-59 -5.8556246532993495e-35
3.6058607557211214e-02 3.8727638764212019e-10 2.4741755429603100e-59 -4.8317130461813899e-35
4.0086544632756752e-02 3.5254883622319392e-10 2.3303281154070090e-59 -3.8830376878544755e-35
4.4564423571942270e-02 3.2399914589342179e-10 2.2148954511988042e-59 -3.0232111219164253e-35
4.9542505259398940e-02 3.0112972086981755e-10 2.1046716464486403e-59 -2.2259250933408811e-35
5.5076664986258239e-02 2.8347853314232324e-10 1.9803567533647071e-59 -1.4804450153141645e-35
6.1229019609036352e-02 2.7061648572544045e-10 1.8910605628904626e-59 -8.0298934848166376e-36
6.8068624765481728e-02 2.6214616348597746e-10 1.7879249950553471e-59 -1.7326037166382136e-36
7.5672249973118097e-02 2.5769871498840920e-10 1.6918550997019140e-59 4.0518469253876721e-36
8.4125240310392382e-02 2.5693236112662421e-10 1.6039586885941290e-59 9.3694496333168003e-36
9.3522474352161197e-02 2.5953188831428731e-10 1.5139329336253360e-59 1.4220556448252356e-35
1.0396942911163558e-01 2.6520615428980252e-10 1.4404254950048211e-59 1.8720013873818685e-35
1.1558336394197002e-01 2.7368784446693610e-10 1.3722496334806990e-59 2.2869836818010506e-35
1.2849463668591790e-01 2.8472992166872296e-10 1.2976462337344752e-59 2.6584812889365856e-35
1.4284816684635959e-01 2.9808423472520141e-10 1.2246334893030457e-59 2.9925528295530935e-35
1.5880506220071439e-01 3.1357294095526834e-10 1.1413304344577489e-59 3.2730425679445234e-35
1.7654442711677987e-01 3.3097876141338597e-10 1.1145663007646211e-59 3.6035148626315456e-35
1.9626537286701065e-01 3.5012724635175668e-10 1.0579035895636190e-59 3.8604911732534800e-35
2.1818925250552718e-01 3.7085941658934046e-10 1.0040506895085580e-59 4.0925301984478547e-35
2.4256214539270171e-01 3.9302969983411332e-10 9.5816626681963094e-60 4.3132381380352877e-35
2.6965761925427456e-01 4.1650575789866292e-10 9.1240706230818062e-60 4.5086275137983780e-35
2.9977980077707206e-01 4.4116655354517634e-10 8.6932995887291854e-60 4.6858581530995735e-35
3.3326678920650027e-01 4.6690356829914749e-10 8.3474451920199850e-60 4.8638500721687945e-35
3.7049445126092173e-01 4.9361901214661075e-10 7.9016129028511485e-60 4.9903658055663325e-35
4.1188063995803131e-01 5.2122716094466273e-10 7.4330791940406273e-60 5.0844608407740988e-35
4.5788988470643521e-01 5.4965048359471335e-10 7.2351586959312354e-60 5.2516022213420519e-35
5.0903860530525535e-01 5.7881901503961578e-10 6.9229867516438766e-60 5.3618576297858126e-35
5.6590090837505325e-01 6.0867104501870434e-10 6.5578312042811428e-60 5.4323501772386095e-35
6.2911503128071999e-01 6.3915498995252429e-10 6.3523327605228137e-60 5.5523398659616549e-35
6.9939050587463025e-01 6.7022828920225048e-10 6.0609935059572975e-60 5.6202244152073913e-35
7.7751612246776514e-01 7.0185229044000144e-10 5.8176380017457017e-60 5.6949596282582709e-35
8.6436878341850576e-01 7.3395543867467661e-10 5.5735739074144798e-60 5.7550768220178041e-35
9.6092334571411364e-01 7.6647560311395106e-10 5.3485323241344548e-60 5.8108512996998168e-35
1.0682635630205650e+00 7.9944137940254143e-10 5.0919725391816994e-60 5.8355047913849004e-35
1.1875942500172221e+00 8.3283501914988408e-10 4.9046911285743690e-60 5.8868985691439737e-35
1.3202548055519703e+00 8.6663895239620295e-10 4.7081072583376507e-60 5.9214687979610115e-35
1.4677342464042664e+00 9.0083798673967351e-10 4.5429123570750143e-60 5.9651642235882489e-35
1.6316879203990147e+00 9.3541081502096343e-10 4.3675982313926991e-60 5.9921886614705153e-35
1.8139560864635880e+00 9.7033452209188763e-10 4.2108639928904569e-60 6.0221319942237534e-35
2.0165845701754304e+00 1.0055885102885680e-09 4.0582237247124080e-60 6.0457791943921222e-35
2.2418477266435501e+00 1.0411673023437772e-09 3.9341153847451205e-60 6.0823801677289176e-35
2.4922739684652271e+00 1.0770770832020029e-09 3.7649135068372908e-60 6.0752731890215467e-35
2.7706741452904242e+00 1.1133310484907641e-09 3.6486742056645901e-60 6.1022875420819358e-35
3.0801730935336153e+00 1.1499283064547427e-09 3.5255275154402546e-60 6.1163782014104595e-35
3.4242447103551177e+00 1.1868479166630423e-09 3.4443901875123990e-60 6.1607291819151007e-35
3.8067509455916357e+00 1.2240533113371627e-09 3.3208522164806830e-60 6.1608768140742164e-35
4.2319851492915035e+00 1.2615033082868793e-09 3.3200578854413778e-60 6.2703121375551621e-35
4.7047202613987427e+00 1.2991711349917011e-09 3.0916749770356123e-60 6.1557091462764333e-35
5.2302623844796514e+00 1.3369953683712538e-09 2.9948135306680133e-60 6.1602755319797529e-35
5.8145103408060699e+00 1.3748655862503781e-09 2.9513308278988433e-60 6.2146254245311379e-35
6.4640218822796580e+00 1.4128399504118078e-09 2.8480700035044588e-60 6.2009939301680315e-35
7.1860872963548239e+00 1.4508510072899114e-09 2.7708315637633089e-60 6.2096090691177426e-35
7.9888112341322284e+00 1.4888335907147723e-09 2.6399783290517587e-60 6.1507308488509939e-35
8.8812036790828746e+00 1.5267565683592505e-09 2.6241874525990021e-60 6.2200051462829231e-35
9.8732810774597191e+00 1.5646101053832770e-09 2.5756932049614601e-60 6.2476237138405737e-35
1.0976178765510586e+01 1.6023956574983044e-09 2.4973110760225224e-60 6.2344174488005010e-35
1.2202275955405364e+01 1.6400932835949782e-09 2.4433836432323454e-60 6.2470063461412767e-35
1.3565334682751763e+01 1.6776177195025123e-09 2.3794383379094614e-60 6.2424319886002515e-35
1.5080654275283054e+01 1.7148498457177518e-09 2.3448660502172643e-60 6.2724135134556811e-35
1.6765243076515016e+01 1.7516587796410120e-09 2.2742632834867448e-60 6.2498064472435273e-35
1.8638009351842911e+01 1.7879560124355983e-09 2.2140221526535295e-60 6.2361531440701813e-35
2.0719973519858549e+01 1.8237050433228732e-09 2.1671353236585716e-60 6.2367922450996537e-35
2.3034504091027827e+01 1.8588745412681328e-09 2.1287269761626180e-60 6.2458093034843437e-35
2.5607579961965065e+01 1.8933775646246310e-09 2.1079520473737655e-60 6.2775027140461003e-35
2.8468082009365045e+01 1.9270856415759489e-09 2.0468891245524187e-60 6.2451558507637546e-35
3.1648117256518162e+01 1.9598249088070369e-09 2.0037834525511714e-60 6.2353589081933620e-35
3.5183379250938884e+01 1.9914478989494177e-09 1.9631183422833532e-60 6.2249873457230907e-35
3.9113548698080876e+01 2.0220665898937918e-09 1.9218085530497832e-60 6.2096041338336484e-35
4.3482738847955375e+01 2.0515947110707225e-09 1.9217871262802083e-60 6.2577590461403125e-35
4.8339990633789107e+01 2.0799515934648427e-09 1.8823397529088030e-60 6.2385776271526919e-35
5.3739823120288484e+01 2.1070326994355799e-09 1.8393828797782905e-60 6.2094463095573598e-35
5.9742845439883915e+01 2.1327536957994834e-09 1.8033364986152741e-60 6.1879062742934944e-35
6.6416437085487203e+01 2.1570550694686330e-09 1.7778572979190270e-60 6.1808964880236533e-35
7.3835504195547415e+01 2.1798761511206615e-09 1.7375558927231861e-60 6.1444056239624602e-35
8.2083320320143258e+01 2.2011482437596653e-09 1.7227601179566699e-60 6.1494998307887031e-35
9.1252461105094653e+01 2.2208023942680912e-09 1.6933459901926093e-60 6.1252781583679906e-35
1.0144584338522890e+02 2.2388077183343310e-09 1.6532427300545376e-60 6.0779612963690444e-35
1.1277788034985727e+02 2.2551490838110561e-09 1.6288787935598905e-60 6.0559921429351924e-35
1.2537576574634363e+02 2.2697853085232653e-09 1.6098931208481916e-60 6.0409635102136838e-35
1.3938090153599839e+02 2.2826598058177937e-09 1.5917305955649624e-60 6.0245376199272415e-35
1.5495048502668226e+02 2.2937168182571235e-09 1.5617295229992686e-60 5.9825483245360065e-35
1.7225927329651455e+02 2.3029250262547706e-09 1.5480450121722360e-60 5.9687450912574684e-35
1.9150154471303225e+02 2.3101294154896456e-09 1.5196176274920254e-60 5.9233566199098471e-35
2.1289327956441298e+02 2.3154832943387339e-09 1.4794677526789841e-60 5.8516921961034202e-35
2.3667458427872930e+02 2.3190465103461574e-09 1.4629475540242367e-60 5.8236810053794898e-35
2.6311238644130788e+02 2.3208137194473304e-09 1.4440684037815289e-60 5.7884064789899266e-35
2.9250343085977858e+02 2.3208127322542648e-09 1.4164950404068490e-60 5.7330487260869567e-35
3.2517761030542283e+02 2.3190875463778817e-09 1.3957858655994894e-60 5.6890025598419745e-35
3.6150166831593680e+02 2.3156696525109535e-09 1.3717168624937510e-60 5.6356806993667491e-35
4.0188331562084255e+02 2.3105892570532853e-09 1.3554651323299424e-60 5.5961211139896026e-35
4.4677580639337231e+02 2.3039065094131196e-09 1.3233735722152058e-60 5.5215285591571487e-35
4.9668302569387771e+02 2.2956866471741659e-09 1.3055336586689009e-60 5.4744290853149450e-35
5.5216514520757016e+02 2.2860041852024745e-09 1.2860828884938295e-60 5.4220468516244130e-35
6.1384491075804954e+02 2.2749232013323208e-09 1.2672454150740517e-60 5.3691424384465645e-35
6.8241463216934665e+02 2.2625188261229235e-09 1.2367515398245532e-60 5.2896709365743296e-35
7.5864395393249390e+02 2.2488792011717493e-09 1.2185110597989502e-60 5.2346597412304292e-35
8.4338849389662823e+02 2.2340939157437696e-09 1.1936831149618994e-60 5.1639768000259827e-35
9.3759944694756848e+02 2.2182539762812915e-09 1.1765070843085248e-60 5.1084498386203702e-35
1.0423342614680441e+03 2.2013938404580477e-09 1.1597772788511522e-60 5.0526342899317642e-35
1.1587685084149657e+03 2.1837298878758279e-09 1.1249473530337326e-60 4.9561033042610291e-35
1.2882090762353882e+03 2.1653537051024720e-09 1.1151255179201854e-60 4.9135005976843057e-35
1.4321088397243182e+03 2.1463839059446429e-09 1.0862246811072040e-60 4.8279618340546327e-35
1.5920829674714785e+03 2.1269428430050888e-09 1.0691417260664682e-60 4.7678829224170477e-35
1.7699270509361079e+03 2.1071513812696036e-09 1.0485411481161905e-60 4.6994021604980565e-35
1.9676372586352047e+03 2.0871331296705498e-09 1.0542332857598758e-60 4.6892911787810022e-35
2.1874327416611832e+03 2.0670252902429288e-09 1.0082143090190557e-60 4.5631164435694640e-35
2.4317805420142599e+03 2.0469686322345539e-09 9.9550022909203679e-61 4.5114883418478945e-35
2.7034232833272281e+03 2.0271071194934545e-09 9.6624299042329396e-61 4.4221611096149572e-35
3.0054099547906130e+03 2.0075935925715856e-09 9.5156068211016128e-61 4.3660722323586653e-35
3.3411301338049552e+03 1.9885861250629117e-09 9.3377957808106334e-61 4.3030463883323853e-35
3.7143520314842481e+03 1.9702509474467211e-09 9.1713836126630286e-61 4.2429040154361309e-35
4.1292647880432960e+03 1.9527610475609232e-09 9.0051048640110982e-61 4.1831499961771782e-35
4.5905254928033128e+03 1.9362931258046965e-09 8.9302328019299509e-61 4.1450971811104227e-35
5.1033114565808137e+03 1.9210302007062319e-09 8.7166388291578085e-61 4.0753251074917435e-35
5.6733783231785801e+03 1.9071868233756197e-09 8.6148372312433006e-61 4.0322359236684957e-35
6.3071246722373926e+03 1.8949823482177777e-09 8.4375271534135587e-61 3.9721485976076640e-35
7.0116638385678234e+03 1.8845588369644322e-09 8.5632802621095307e-61 3.9837538615889683e-35
7.7949037540808913e+03 1.8761012776372678e-09 8.3022349003715161e-61 3.9056231515737267e-35
8.6656357084847205e+03 1.8697828705025907e-09 8.3484079164647256e-61 3.9001233016088314e-35
9.6336330250199262e+03 1.8657534357330927e-09 8.2617367928453784e-61 3.8642354762780664e-35
1.0709760758796408e+04 1.8641316176425853e-09 8.2531974237952082e-61 3.8472925001108959e-35
1.1906097649014262e+04 1.8649876274335921e-09 8.3899463375759449e-61 3.8645643848397741e-35
1.3236071693892180e+04 1.8683261160980381e-09 8.5006018929296455e-61 3.8760468475444506e-35
1.4714610870032509e+04 1.8740716799182361e-09 8.8536372156156625e-61 3.9420285856927188e-35
1.6358310687935646e+04 1.8820445763795450e-09 9.1666698761148574e-61 3.9979236039321816e-35
1.8185620464351319e+04 1.8919434920783629e-09 9.5674441416765720e-61 4.0716379743703934e-35
2.0217050402236244e+04 1.9033295703433162e-09 1.0273564205387380e-60 4.2064815863507862e-35
2.2475401802637283e+04 1.9156197248848477e-09 1.1245378182564870e-60 4.3880354248385240e-35
2.4986022992459686e+04 1.9280821245911140e-09 1.2426743441498744e-60 4.5997014656279262e-35
2.7777093840719150e+04 1.9398505534931455e-09 1.4061556594111130e-60 4.8784666994774857e-35
3.0879942056763579e+04 1.9499576240167294e-09 1.6270332262666972e-60 5.2306820923427138e-35
3.4329394820678193e+04 1.9573611376276659e-09 1.9298660968486473e-60 5.6747354294614917e-35
3.8164169692665768e+04 1.9610478999584699e-09 2.3259269239573809e-60 6.2006682167284879e-35
4.2427309189070300e+04 1.9601257380413583e-09 2.8582168267030112e-60 6.8331327533613311e-35
4.7166663902841326e+04 1.9539071686716835e-09 3.5755516098887095e-60 7.5852497844142671e-35
5.2435429591106338e+04 1.9420091203301280e-09 4.5805008731943384e-60 8.5036549522746490e-35
5.8292744258265033e+04 1.9244410836939805e-09 5.8882849975405359e-60 9.5320750459004697e-35
6.4804351936421488e+04 1.9016599907837424e-09 7.6949749450240970e-60 1.0748443429102200e-34
7.2043340613598208e+04 1.8745707517096404e-09 9.9620081989598214e-60 1.2045352717066092e-34
8.0090962592435026e+04 1.8444784678602420e-09 1.3109808835009907e-59 1.3581682730865719e-34
8.9037546487288753e+04 1.8129789097541590e-09 1.7262940226378797e-59 1.5300045030594301e-34
9.8983511096230883e+04 1.7818104324044150e-09 2.2753443113821532e-59 1.7231328085184669e-34
1.1004049252790690e+05 1.7526696876009793e-09 3.0159789117117550e-59 1.9452703602923321e-34
1.2233259723442435e+05 1.7270493238428822e-09 3.9948852930475388e-59 2.1961379782466588e-34
1.3599779501463560e+05 1.7061060762313330e-09 5.4001441491464170e-59 2.5022252484885256e-34
1.5118946762325626e+05 1.6905843021553141e-09 6.8586948973795469e-59 2.7815890126966034e-34
1.6807813036780286e+05 1.6808059980884858e-09 8.9748736924490198e-59 3.1352941018804382e-34
1.8685334601701197e+05 1.6767481629976865e-09 1.1734539634130019e-58 3.5393891195583212e-34
2.0772585250294721e+05 1.6781051807599430e-09 1.5289063300416645e-58 3.9989925285246519e-34
2.3092992829867455e+05 1.6842358593810302e-09 1.9804795161766305e-58 4.5072204266672830e-34
2.5672602202113648e+05 1.6945412628081000e-09 2.5223621788759813e-58 5.0557749930655273e-34
2.8540367577455891e+05 1.7083288619720384e-09 3.2123333707294332e-58 5.6747377752574125e-34
3.1728477504677442e+05 1.7249077354110529e-09 3.9569555148698712e-58 6.2886490783191175e-34
3.5272716163614322e+05 1.7436072049644517e-09 4.9713540047874559e-58 7.0207420234831037e-34
