# k_modes P_R(k) P_S(k) P_RS(k) 
4.5762420829693765e-05 1.6588582901969031e-09 1.1870195373230933e-67 -1.1022228762276084e-38
5.0873102549983918e-05 1.4694143107354882e-09 1.1039485064024482e-67 -9.6455403283514092e-39
5.6554537896777149e-05 1.3030619673018799e-09 1.0312851731158124e-67 -8.4066233103939255e-39
6.2870467818932233e-05 1.1577358461793866e-09 9.5813530662820145e-68 -7.2524249995039881e-39
6.9891751763330093e-05 1.0315393001860959e-09 8.9184546899188150e-68 -6.2064687085317376e-39
7.7697162658553888e-05 9.2273201401362802e-10 8.3203286537151044e-68 -5.2590114885140661e-39
8.6374270681209594e-05 8.2971624442980965e-10 7.7680280846067369e-68 -4.3964593516348425e-39
9.6020425720005545e-05 7.5112676751710495e-10 7.2496613201272065e-68 -3.6105317353389738e-39
1.0674384956001560e-04 6.8566483152714064e-10 6.6726729263389552e-68 -2.8765958714844248e-39
1.1866485004051890e-04 6.3189212200496639e-10 6.3005228047732272e-68 -2.2452025844076783e-39
1.3191717080825112e-04 5.8866748435981955e-10 5.8818004142061114e-68 -1.6569691083726243e-39
1.4664949180916864e-04 5.5496930996700875e-10 5.4939038130873867e-68 -1.1239603441616457e-39
1.6302709735298738e-04 5.2986288253873525e-10 5.1331530794927179e-68 -6.4139278137922526e-40
1.8123373046478406e-04 5.1249359366818560e-10 4.7976717801612758e-68 -2.0510280228652172e-40
2.0147365432793279e-04 5.0208183262609255e-10 4.5359898016351542e-68 1.8980844050087247e-40
2.2397394394604026e-04 4.9791741276010092e-10 4.2048693564122578e-68 5.4433187405289233e-40
2.4898703373441060e-04 4.9935283015893658e-10 3.9250214436851369e-68 8.6303098324874152e-40
2.7679354962288036e-04 5.0580015338119546e-10 3.6792470533021928e-68 1.1506247533120875e-39
3.0770545744384926e-04 5.1672409101916755e-10 3.4083527158968834e-68 1.4002162925403522e-39
3.4206956292778378e-04 5.3164100904044701e-10 3.1639016380042135e-68 1.6214747560835894e-39
3.8027140257321424e-04 5.5011289831288797e-10 3.0322872062690637e-68 1.8450098400503006e-39
4.2273956904352876e-04 5.7174509039334647e-10 2.8425364289691953e-68 2.0273848273191242e-39
4.6995051961789674e-04 5.9618323413427622e-10 2.6532528151569885e-68 2.1838360787592965e-39
5.2243392164311511e-04 6.2311199663106764e-10 2.5066719936334110e-68 2.3342738767219628e-39
5.8077859495787323e-04 6.5221394676586224e-10 2.3521744535196378e-68 2.4593949248092466e-39
6.4563911795846259e-04 6.8311759300062790e-10 2.2204643919617852e-68 2.5751747365796738e-39
7.1774317142045798e-04 7.1574016742461781e-10 2.1361286499353196e-68 2.7019999874653145e-39
7.9789970246790429e-04 7.4987670237400555e-10 1.9688868361052664e-68 2.7580172578260773e-39
8.8700800028290348e-04 7.8536246765568867e-10 1.8565016025986246e-68 2.8325445537017205e-39
9.8606778537747831e-04 8.2205507286586661e-10 1.7549276288678284e-68 2.8996729864844794e-39
1.0961904256208833e-03 8.5983411273585213e-10 1.6239673088603518e-68 2.9255494275689496e-39
1.2186114048568111e-03 8.9859991474308144e-10 1.5517275687747596e-68 2.9891761576261329e-39
1.3547041839979377e-03 9.3827143254736853e-10 1.4793324755180712e-68 3.0416394207221845e-39
1.5059956101076866e-03 9.7878589496011511e-10 1.3952333846815391e-68 3.0703559985373099e-39
1.6741830463462095e-03 1.0200964878206348e-09 1.3276028509085754e-68 3.1058484471851732e-39
1.8611534149642393e-03 1.0621727507457216e-09 1.2583937694604078e-68 3.1292434114428953e-39
2.0690043669912670e-03 1.1049913372029699e-09 1.1948894792865121e-68 3.1497857656834712e-39
2.3000678161242210e-03 1.1485446175514343e-09 1.1357475101970204e-68 3.1668739633525701e-39
2.5569361008471818e-03 1.1928362531049838e-09 1.0805830126943911e-68 3.1809240696845005e-39
2.8424910682992200e-03 1.2378785959258220e-09 9.9636571280374015e-69 3.1412029016471666e-39
3.1599364061869989e-03 1.2836885567443262e-09 9.8060723409833735e-69 3.2009782407459121e-39
3.5128335854791486e-03 1.3302862570187065e-09 9.3526362005873897e-69 3.2076584487645134e-39
3.9051418171293520e-03 1.3773943544144411e-09 8.8860039247512718e-69 3.2046683226798170e-39
4.3412624711091259e-03 1.4252498106212873e-09 8.5476156739718961e-69 3.2185362243035679e-39
4.8260884560946656e-03 1.4739337863127291e-09 8.0507620173970578e-69 3.1960827562113914e-39
5.3650591138065112e-03 1.5234678188499782e-09 7.8386809659802674e-69 3.2245696949895411e-39
5.9642212438705674e-03 1.5738646066219210e-09 7.4879666341228993e-69 3.2202903357217265e-39
6.6302969438483362e-03 1.6251301412562491e-09 7.2254939310332942e-69 3.2302995566556008e-39
7.3707590255447280e-03 1.6772648620246759e-09 7.0455896784687463e-69 3.2554746449617392e-39
8.1939148537012764e-03 1.7302668119670108e-09 6.6718273620387671e-69 3.2313968303842936e-39
9.1089995476747385e-03 1.7841307509895530e-09 6.3938417559372429e-69 3.2250762093363531e-39
1.0126279591745871e-02 1.8388324955269093e-09 6.1855745255870129e-69 3.2324267551133458e-39
1.1257168016479347e-02 1.8943302994750940e-09 6.0225594267746710e-69 3.2486583557656513e-39
1.2514352443373246e-02 1.9505647280245791e-09 5.8282190015231065e-69 3.2535346595490161e-39
1.3911937429351897e-02 2.0074655160154671e-09 5.6514981452944698e-69 3.2602022270606238e-39
1.5465602708088090e-02 2.0649588667963059e-09 5.4761317384249152e-69 3.2642060782230102e-39
1.7192779103490000e-02 2.1229612477202752e-09 5.2872515252867382e-69 3.2608932109627725e-39
1.9112844088954643e-02 2.1813725748308704e-09 5.3268065315366459e-69 3.3261228530912999e-39
2.1247339186399202e-02 2.2400714833080620e-09 5.0241592603221956e-69 3.2810990805063119e-39
2.3620211644105278e-02 2.2985861805537209e-09 4.8933805045146539e-69 3.2872767663551077e-39
2.6258083104799181e-02 2.3569356496617875e-09 4.7705962302529770e-69 3.2933069456078105e-39
2.9190548278199294e-02 2.4151891585542312e-09 4.6577379793484402e-69 3.3002195600180550e-39
3.2450506968886392e-02 2.4732074293688549e-09 4.5525346333788113e-69 3.3073807458413751e-39
3.6074533184571746e-02 2.5308313907304520e-09 4.3320471568979929e-69 3.2688556041067267e-39
4.0103285465848848e-02 2.5878705945742021e-09 4.3545958324975233e-69 3.3189326752890623e-39
4.4581963040984968e-02 2.6441300563537448e-09 4.2682762011443713e-69 3.3258640037895656e-39
4.9560812923427643e-02 2.6994162055564284e-09 4.1777614112780567e-69 3.3287203640643679e-39
5.5095693641235517e-02 2.7535154543875720e-09 4.1045953297903617e-69 3.3360754596861368e-39
6.1248701923005938e-02 2.8061698963451004e-09 4.0092452456551246e-69 3.3318614437431226e-39
6.8088869371190769e-02 2.8570588184704220e-09 3.9554135755948488e-69 3.3423666266467425e-39
7.5692936938891980e-02 2.9058476220957775e-09 3.8982929521663880e-69 3.3491353132827493e-39
8.4146215899118249e-02 2.9522843838179676e-09 3.8290041194886604e-69 3.3481411458326723e-39
9.3543544965856998e-02 2.9962846412145161e-09 3.7703781110967062e-69 3.3492820218595455e-39
1.0399035430505918e-01 3.0379201119685704e-09 3.7099927636352411e-69 3.3472879688093602e-39
1.1560384837284927e-01 3.0772374718372138e-09 3.6549619001637310e-69 3.3454785065364787e-39
1.2851432085141537e-01 3.1140699560964826e-09 3.5983068332259060e-69 3.3407069995014759e-39
1.4286661643505852e-01 3.1476144435826681e-09 3.5461473630132115e-69 3.3354649529683519e-39
1.5882175586641897e-01 3.1778863948161734e-09 3.4956276376583541e-69 3.3285711924341504e-39
1.7655874245442341e-01 3.2046737687043228e-09 3.4466313354162589e-69 3.3199713168400378e-39
1.9627657034157359e-01 3.2278528152411467e-09 3.3974310249386904e-69 3.3088539885026009e-39
2.1819645705165427e-01 3.2474830874571165e-09 3.3489786936733705e-69 3.2957806847698103e-39
2.4256432536517653e-01 3.2636077272386743e-09 3.2997983579516260e-69 3.2801162441959628e-39
2.6965356236712157e-01 3.2761037320162856e-09 3.2553838443417913e-69 3.2646093936516814e-39
2.9976808662119153e-01 3.2847940984675655e-09 3.2072020574438643e-69 3.2449805174526795e-39
3.3324575788169442e-01 3.2896496608848366e-09 3.1613856859658889e-69 3.2243503233787786e-39
3.7046216759717693e-01 3.2907454420113769e-09 3.1134802478874187e-69 3.2005469875755064e-39
4.1183485273208237e-01 3.2880655314346856e-09 3.0639150078045684e-69 3.1738103300130857e-39
4.5782798018198628e-01 3.2815951989318543e-09 3.0152086391066964e-69 3.1454752515947805e-39
5.0895755433762646e-01 3.2714138837318790e-09 2.9692767016299754e-69 3.1166374400497246e-39
5.6579720622223795e-01 3.2575851574489159e-09 2.8179506640196571e-69 3.0297888429205840e-39
6.2898462915146724e-01 3.2402121575120252e-09 2.8731937041433475e-69 3.0511876214804218e-39
6.9922873311858236e-01 3.2193496183997050e-09 2.8256831965308168e-69 3.0160997598039697e-39
7.7731759817119395e-01 3.1948373283115333e-09 2.7748147054548839e-69 2.9774217877417579e-39
8.6412731600971493e-01 3.1672477319783400e-09 2.7249302528510556e-69 2.9377603347111699e-39
9.6063181900289263e-01 3.1367143598365441e-09 2.6762730904527576e-69 2.8973371556640269e-39
1.0679138068937422e+00 3.1033970192202795e-09 2.6326951234125914e-69 2.8583431447027021e-39
1.1871768937843714e+00 3.0674978043654045e-09 2.5755416659770106e-69 2.8107455580213383e-39
1.3197591116787046e+00 3.0292587093951128e-09 2.5229157740797080e-69 2.7644905424563705e-39
1.4671479220815451e+00 2.9889355684558756e-09 2.4741415169454329e-69 2.7193631209032114e-39
1.6309969040715568e+00 2.9467658159551515e-09 2.4274261312481676e-69 2.6745085261720291e-39
1.8131443060743744e+00 2.9029722955897528e-09 2.3759833775449139e-69 2.6262900358833323e-39
2.0156336694712031e+00 2.8577581813316657e-09 2.6113351731073592e-69 2.7317691657996724e-39
2.2407367554225410e+00 2.8113300094659708e-09 2.2783681928378879e-69 2.5308476527789749e-39
2.4909790321267842e+00 2.7639517052697554e-09 2.1795748095368805e-69 2.4543890825114560e-39
2.7691680084594332e+00 2.7159163809031219e-09 2.2679060708352212e-69 2.4817075151225795e-39
3.0784247318726083e+00 2.6675041261109369e-09 2.1380509016336368e-69 2.3879143706970025e-39
3.4222188039349390e+00 2.6189770862199600e-09 2.0945677450588307e-69 2.3417067688289766e-39
3.8044073063568931e+00 2.5705485406397176e-09 1.9991662955883856e-69 2.2661970481515041e-39
4.2292780742189038e+00 2.5227875949635382e-09 2.0096320936919716e-69 2.2504415551378627e-39
4.7015978018918236e+00 2.4758197996907302e-09 1.9726456215815994e-69 2.2081011388707525e-39
5.2266655213576971e+00 2.4299462007631460e-09 1.9347192886847758e-69 2.1654464305656404e-39
5.8103720529129754e+00 2.3854877888470584e-09 1.8535356084352184e-69 2.0987095552178633e-39
6.4592660952412393e+00 2.3427966356933422e-09 1.9061517589730570e-69 2.1072705000500523e-39
7.1806276963307383e+00 2.3022346087905803e-09 1.8422665900817551e-69 2.0510469566194909e-39
7.9825499295189486e+00 2.2642025818844167e-09 1.8163200232889089e-69 2.0161565931237728e-39
8.8740296910009846e+00 2.2291266375307146e-09 1.7950064450917727e-69 1.9839784119869228e-39
9.8650686374739198e+00 2.1974712839698517e-09 1.7759594365697177e-69 1.9530350601174723e-39
1.0966785396352888e+01 2.1697290881873478e-09 1.7596418745699451e-69 1.9233122594602219e-39
1.2191540307463669e+01 2.1464172437463145e-09 1.7478268948426247e-69 1.8954079460901993e-39
1.3553074095709114e+01 2.1280653349015916e-09 1.7410663617952586e-69 1.8690429360307375e-39
1.5066662030500675e+01 2.1152108461711311e-09 1.7365837225813080e-69 1.8419738783568677e-39
1.6749285301494812e+01 2.1083540794949194e-09 1.8532867916683876e-69 1.8745897423886376e-39
1.8619821533326562e+01 2.1079186482969909e-09 1.7418628190618355e-69 1.7853357513422735e-39
2.0699256576756142e+01 2.1142865534971003e-09 1.7427423097897678e-69 1.7482718844892833e-39
2.3010919952347962e+01 2.1275010205427603e-09 1.7672755177942295e-69 1.7150406566915440e-39
2.5580746588163016e+01 2.1472054288542243e-09 1.7766899110665720e-69 1.6635101801164678e-39
2.8437567787942502e+01 2.1726718952487745e-09 1.8217512470283728e-69 1.6147819182156660e-39
3.1613434694202109e+01 2.2025994969151797e-09 1.8657996294743975e-69 1.5464160225621705e-39
3.5143977875222163e+01 2.2349878349366151e-09 2.0511873057737929e-69 1.5064321382371222e-39
3.9068807070198588e+01 2.2670503522612306e-09 1.8711318676512769e-69 1.2965250584421190e-39
4.3431955577360782e+01 2.2952084093154230e-09 2.1281637497252695e-69 1.2213348904451247e-39
4.8282374270718996e+01 2.3151987720598039e-09 2.2914553442420917e-69 1.0551057123074519e-39
5.3674480787895618e+01 2.3223626170845051e-09 2.5250400771116044e-69 8.5050769793208688e-40
5.9668770050468247e+01 2.3121364089676118e-09 2.8571344855288292e-69 5.9814272949045018e-40
6.6332492966351523e+01 2.2807524711514996e-09 3.2120463752605788e-69 2.5027672173416777e-40
7.3740410928690594e+01 2.2260952651576903e-09 3.7506867549183914e-69 -1.6348936273398107e-40
8.1975634576111972e+01 2.1485533647383665e-09 4.9990615609174610e-69 -5.5167673763809592e-40
9.1130556224519978e+01 2.0516678802566463e-09 6.1744122725353300e-69 -1.1691501063566720e-39
1.0130788643154271e+02 1.9422783413539938e-09 8.5893328486665147e-69 -1.7566793586458731e-39
1.1262180632301320e+02 1.8299553793259986e-09 1.1685955630246773e-68 -2.5513788096755786e-39
1.2519924860962428e+02 1.7257382016822921e-09 1.6190150650997165e-68 -3.5137245055383894e-39
1.3918132166569146e+02 1.6398684259087203e-09 2.2788360908486466e-68 -4.6653182360688723e-39
1.5472489264699598e+02 1.5800134176993644e-09 3.2246538301383288e-68 -6.0630002704398341e-39
1.7200434740896449e+02 1.5496149785031822e-09 4.5937086014036459e-68 -7.7065085580072593e-39
1.9121354696999467e+02 1.5476103155636184e-09 6.4895602210849403e-68 -9.6555779091858308e-39
2.1256800246980728e+02 1.5693986803180756e-09 9.2968462841420243e-68 -1.1922177683326937e-38
2.3630729302403705e+02 1.6086546325868007e-09 1.3155553169680959e-67 -1.4533195491531936e-38
2.6269775360136651e+02 1.6591934650968246e-09 1.8302668663475281e-67 -1.7381696807890958e-38
2.9203546307893515e+02 1.7161692933350611e-09 2.5420027629923214e-67 -2.0588129914638021e-38
3.2464956599950330e+02 1.7763921297008924e-09 3.5640428513172946e-67 -2.4363365532880406e-38
3.6090596529770733e+02 1.8380318933532817e-09 4.8760944506425233e-67 -2.8263868558137553e-38
4.0121142742469874e+02 1.9001369927111317e-09 6.5928239850285641e-67 -3.2330353383841994e-38
4.4601814592724020e+02 1.9622613081237869e-09 8.7870502585693822e-67 -3.6535106891381879e-38
4.9582881468078187e+02 2.0242530828575099e-09 1.1542106323098668e-66 -4.0287892810860572e-38
5.5120226769395720e+02 2.0861219167592008e-09 1.4879710751172388e-66 -4.4700531680023935e-38
6.1275974875837926e+02 2.1479277360924185e-09 3.1767667567521821e-66 -6.2452486650759244e-38
6.8119188128396081e+02 2.2096699454102890e-09 2.3014328721726406e-66 -5.0640157093508459e-38
7.5726641651547675e+02 2.2717804987164840e-09 2.7371357978369957e-66 -5.2331371632223598e-38
8.4183684705887276e+02 2.3330575264604029e-09 3.0090000571267794e-66 -4.9987690472321834e-38
9.3585198235387486e+02 2.3925339226671561e-09 3.3715791170847225e-66 -5.0102430640806944e-38
1.0403665935216875e+03 2.4485773343762248e-09 3.3649050706903539e-66 -4.4862865025717935e-38
1.1565532470140613e+03 2.4988285972767983e-09 3.0260879796133288e-66 -3.8656177117028336e-38
1.2857154598273676e+03 2.5401693724091038e-09 2.2593127459308165e-66 -2.9673712637966207e-38
1.4293023238721678e+03 2.5688477926393536e-09 1.1674539264119995e-66 -1.9427709010884513e-38
1.5889247635714667e+03 2.5808160830236575e-09 1.7959964811772782e-67 -9.9751578999591763e-39
1.7663736090842879e+03 2.5723192197359163e-09 3.3436460762367050e-67 -4.4803872264579430e-39
1.9636396879210185e+03 2.5406742049585575e-09 3.3014979611537841e-66 -9.8099989921987435e-39
2.1829361603616217e+03 2.4850207810910871e-09 1.3316424158577959e-65 -2.1663407467513993e-38
2.4267233492614173e+03 2.4067983033807590e-09 3.4659652865698071e-65 -5.5980614986269395e-38
2.6977363428140711e+03 2.3097133932797466e-09 7.5214026558628048e-65 -1.1508097681828011e-37
2.9990156799516767e+03 2.1991682377472762e-09 1.3564646064297124e-64 -2.1689844029910969e-37
3.3339414626464454e+03 2.0813343654028210e-09 2.6109194723169415e-64 -3.3040274107660944e-37
3.7062712778254695e+03 1.9621714026966035e-09 4.3606667145447247e-64 -5.0155435185000330e-37
4.1201823543506971e+03 1.8466864549755514e-09 7.1009704501439863e-64 -7.2025133266460987e-37
4.5803184280301512e+03 1.7385595801214103e-09 1.1368327487430836e-63 -9.7311220659030289e-37
5.0918418404465956e+03 1.6402457897044962e-09 1.7531669487414126e-63 -1.2910775045139682e-36
5.6604914561088226e+03 1.5526424226516564e-09 2.5690946878947024e-63 -1.6750315538282284e-36
6.2926470477077582e+03 1.4759270483476761e-09 3.8923126779512381e-63 -2.1289103889907550e-36
6.9954008718255982e+03 1.4096774810510450e-09 5.9853127678965861e-63 -2.6541290003757758e-36
7.7766372381181736e+03 1.3530929584599418e-09 8.6788184735232695e-63 -3.2761261469590149e-36
8.6451209646693897e+03 1.3051784678860455e-09 1.2636007274299044e-62 -3.9727604742792252e-36
9.6105957119136474e+03 1.2648734397377534e-09 1.8351984795228250e-62 -4.7892089232285878e-36
1.0683893298349563e+04 1.2311351872446691e-09 2.6482178780114867e-62 -5.7088835844602130e-36
1.1877055224476890e+04 1.2029871647020556e-09 3.8031374814515950e-62 -6.7453849953587587e-36
1.3203467768352262e+04 1.1795406885025510e-09 5.4426349250792754e-62 -7.9123610424075531e-36
1.4678012168424182e+04 1.1600061106428712e-09 7.7411851541163567e-62 -9.2009332017823610e-36
1.6317231578571422e+04 1.1436942418230619e-09 1.0947788711465477e-61 -1.0598811685395815e-35
1.8139516668442309e+04 1.1300117164506426e-09 1.5439958805802176e-61 -1.2135784829056948e-35
2.0165311951373478e+04 1.1184497887192249e-09 2.1620035013320289e-61 -1.3749098758206456e-35
2.2417345154716684e+04 1.1085828779484892e-09 3.0196313265313186e-61 -1.5474647075716931e-35
2.4920882205914462e+04 1.1000495395404951e-09 4.1907818364937314e-61 -1.7178286923693075e-35
2.7704010695057506e+04 1.0925526479473605e-09 5.6930276227402149e-61 -1.8606992705177040e-35
3.0797954994133564e+04 1.0858316128827092e-09 7.9670130434921389e-61 -2.0540181118075068e-35
3.4237426568345159e+04 1.0796963306512038e-09 1.0906649351205169e-60 -2.2010286782823885e-35
3.8061013409692459e+04 1.0739919953406864e-09 1.4374353142735754e-60 -2.2345046144939810e-35
4.2311612961943880e+04 1.0685943421884871e-09 1.9839825435418961e-60 -2.3203770901827426e-35
4.7036913394046067e+04 1.0634001492732533e-09 2.7317463962540202e-60 -2.3799229592623014e-35
5.2289928621462648e+04 1.0583335429449053e-09 3.6868871186803479e-60 -2.3042384317316604e-35
5.8129593077928184e+04 1.0533351623343345e-09 4.8914462838823568e-60 -2.1272901437108052e-35
6.4621422910464309e+04 1.0483607207526537e-09 6.6494303435572137e-60 -1.7291870884280736e-35
7.1838251015706235e+04 1.0433785240822434e-09 8.9472489731286948e-60 -1.3185028738462120e-35
7.9861044164039107e+04 1.0383661178534195e-09 1.1944415756403147e-59 -4.2448082636694495e-36
8.8779811378985032e+04 1.0333099843764539e-09 1.6073653298088349e-59 5.5457872106186504e-36
9.8694613763106026e+04 1.0282015940438921e-09 2.1255012754848400e-59 2.2675476748160686e-35
1.0971668709981433e+05 1.0230374438979439e-09 2.8765280421658159e-59 4.0778535381825671e-35
1.2196968982575380e+05 1.0178163315476081e-09 3.8694270122536256e-59 6.6394848726645010e-35
1.3559109037494540e+05 1.0125403474426030e-09 5.2072947350771854e-59 9.8154937847839989e-35
1.5073370945955065e+05 1.0072131862989609e-09 6.8629761834282387e-59 1.4024504525565672e-34
1.6756743459033698e+05 1.0018394578341272e-09 9.6252499408379450e-59 1.8532843996015316e-34
1.8628112607234638e+05 9.9641112968099753e-10 1.3140256976865996e-58 2.4683753718665553e-34
2.0708473585942408e+05 9.9093786846052870e-10 1.8018653625519148e-58 3.1789150845271155e-34
2.3021166303940339e+05 9.8543356224242327e-10 2.5022653931415298e-58 4.0504302214484696e-34
2.5592137237649405e+05 9.7990509502622695e-10 3.4803373233332315e-58 5.0168264708066403e-34
2.8450230528875528e+05 9.7435723347393875e-10 4.8477893615406152e-58 6.2767963025365087e-34
3.1627511591935519e+05 9.6879472875286465e-10 6.7899705455228288e-58 7.6987748115089507e-34
3.5159626860765106e+05 9.6322227557066840e-10 9.5228165208554385e-58 9.3411536704529278e-34
